-108.46397457226084
-106.47143780710756
-106.80113409964717
-108.40228413071459
-108.62988953447193
-108.05765509432595
-106.50380511589887
-106.6619293927847
-107.4396240817209
-107.55651650585908
-106.50951768462632
-108.48904333437382
-107.90387786437982
-106.6104739329763
-107.8885085006422
-108.02496470372577
-106.89273323862996
-106.98629587665496
-108.66463845032926
-108.73609131417713
-106.8526520385565
-107.83280727764338
-107.64664092081767
-107.50285009962352
-106.86410276560648
-107.38982766366918
-107.61787215143771
-108.45433382110988
-107.69268199598984
-107.71762659118491
-107.6428047782262
-107.21183944589912
-107.95383878541162
-107.59294350989978
-106.11963432646029
-107.03596403595036
-106.64668157539985
-108.38301090414762
-107.07991437790277
-107.5335143578336
-107.72530265461126
-107.82704621963586
-107.62554330434865
-108.0884288044194
-108.16346527500357
-107.28645500428469
-107.21375222090752
-107.2099266942695
-108.46011819978635
-107.78480497292966
-106.71530840221273
-107.94999506786067
-107.45111781745726
-106.53808363791792
-107.72146457563161
-107.00539715260388
-107.49135255558006
-107.01685903536644
-106.18993230057539
-106.74391175899399
-107.51243203322373
-107.86929893044241
-107.2328812570317
-107.02832175627431
-107.44537084386086
-108.09612318448784
-107.50093378347886
-106.00760221717529
-106.8564688547616
-107.43579302442389
-107.37067942024348
-106.88128042265313
-107.80208409796302
-107.27497337085119
-107.31324876087821
-107.35536251451639
-107.10667279732482
-108.02881027515625
-108.34832513511748
-107.88658743691163
-107.15829123395618
-106.88700672616325
-106.55713048718484
-108.06919452133772
-106.73246979150363
-106.99202601509676
-106.99966652546306
-107.56801885150497
-107.26731941677849
-107.29985130872835
-107.33238996980258
-106.8431104040336
-107.16785207131288
-107.31516277632326
-107.504766439292
-107.48943638055849
-107.4396240817209
-107.9211702135502
-108.23083658824719
-107.2921961371032
-107.88274538059764
-107.46452824499092
-107.75601069055594
-108.3290586165916
-107.22714230065101
-106.27547204262751
-106.76870554742432
-107.56801885150497
-106.89082437792209
-107.55268257905941
-107.48177191563418
-108.07881136522035
-107.15446706248488
-107.7713669787337
-107.32281907241511
-107.82896654861759
-106.88318916727404
-107.25009938929456
-107.94807324470752
-107.44920213609505
-106.05316502056469
-107.1927129814891
-106.97483622794506
-107.52393112999984
-107.49326875411978
-107.3381327894929
-107.50668280248532
-107.80976432456174
-106.34203503034477
-108.39264721779463
-107.26540598677862
-106.7553545597593
-106.84692698824925
-107.27305984722011
-107.41855442925048
-106.66383547392483
-106.37057062830712
-106.7553545597593
-107.17932584692754
-107.18506305011665
-106.91564137857306
-107.345790210601
-106.78015015431798
-108.00766080956238
-108.7225706711012
-107.36876472493502
-107.26923287018474
-107.84240951478301
-105.87099249667133
-105.12362244966377
-106.71149501462838
-108.68394677842127
-107.54693186547325
-108.03073309655228
-107.34196145315984
-107.86353652171984
-107.40131773610035
-107.61787215143771
-107.8885085006422
-107.64088674232168
-108.20965959552645
-106.46953405491941
-107.46644411436411
-107.26923287018474
-107.63321483462283
-107.84240951478301
-105.65493448029738
-109.13064251730191
-109.11515088877583
-108.34639837551255
-107.46644411436411
-107.32281907241511
-107.5507656509832
-107.40897825383848
-106.84120214671974
-106.54760677443248
-106.69624238943526
-105.98672365229484
-107.47602381383423
-108.1115130881124
-106.37437576499096
-106.81258106984558
-106.22794424030748
-108.82110531759805
-108.84043320977229
-107.41855442925048
-107.08755917421813
-106.42956057306252
-107.68692611787317
-106.53046554351856
-107.87890341914007
-107.56226757269104
-106.93855286386523
-106.46001563912469
-107.90964176721275
-107.89619299274413
-107.4549492506767
-106.98247590069522
-106.86982844240028
-107.11623048356005
-106.65239933365491
-106.97674611123881
-106.83547751394248
-106.87937170124678
-106.46001563912469
-107.44345523298702
-106.52856107752372
-106.87746300305406
-106.45620843385751
-107.57952204518236
-108.21928514305247
-108.56427398522365
-108.68394677842127
-107.7464137791186
-107.59294350989978
-108.64340207393312
-108.795982673733
-108.6105879543203
-109.5766951817171
-107.88082438801226
-108.53147664202983
-108.03073309655228
-107.91732730318108
-107.51243203322373
-108.47940102251583
-108.25009090814794
-107.90195661088623
-108.23661263333621
-109.1577566167495
-108.43312628059122
-107.152555011775
-106.68861663181953
-106.5590352988942
-106.06265892429431
-105.97533650571319
-105.93738526900913
-106.23744865570164
-105.85771728287118
-107.11623048356005
-106.76679819400336
-106.40862612958371
-105.37865757710915
-107.69843808667582
-107.15446706248488
-107.9192487464994
-107.65814991492117
-108.2674218393913
-108.14422169762014
-107.36493540468794
-107.90387786437982
-107.36110617826094
-107.55843350458441
-107.78672478103846
-107.99997080817465
-108.51411615580905
-107.90195661088623
-107.57952204518236
-107.62554330434865
-107.61978990429098
-107.60828374087248
-106.98056594761293
-106.91945972709502
-106.16142935044408
-107.66006816320478
-106.94237177010437
-107.01685903536644
-106.78778035552368
-107.55651650585908
-106.73628368809354
-106.2963888120379
-107.21757784106431
-107.33430421959262
-108.00766080956238
-106.44478737013212
-107.67541499924386
-107.80976432456174
-106.58189483797743
-106.94237177010437
-106.90609591380449
-107.05698222677444
-107.32090496324349
-107.00539715260388
-106.91182312297751
-107.05698222677444
-108.41384921743035
-108.9506484303364
-107.75217185503614
-108.24431436128292
-108.54305138131731
-108.61830829735182
-108.12690451680066
-107.51626497135761
-106.57998974954415
-106.23174593778243
-106.58570508404425
-106.62762388247235
-106.55141619037828
-107.66582304967443
-106.58570508404425
-107.00157671123544
-107.90003538111642
-106.90609591380449
-106.42765732689946
-106.85837729766708
-106.20133492147362
-106.78968796374332
-106.34013284076768
-107.97113669011817
-106.96146769614259
-107.29602367607443
-106.71340169685485
-107.88658743691163
-106.67146002956402
-106.33252431192231
-107.17358885400152
-106.42004457214145
-106.85456043505839
-106.51142192026234
-106.22794424030748
-107.29410989487897
-107.15446706248488
-106.98438587704221
-107.75217185503614
-108.00573827355257
-107.93269951429008
-106.76870554742432
-108.65498519041677
-106.89655102970731
-108.3059419541967
-106.95955799890997
-107.64664092081767
-106.69624238943526
-108.19233511424765
-107.73105995034672
-107.3304757434513
-106.79159559513218
-108.07304118746055
-106.68289755636239
-107.28836869180702
-107.50093378347886
-107.34770462448931
-106.67717868895235
-107.44537084386086
-108.22506075816138
-106.67908495497426
-105.92220732268453
-107.07035890704695
-106.8526520385565
-106.96337741662954
-108.91196745852544
-107.74065591601263
-106.86791986026141
-107.0474281542224
-106.66955385599054
-106.93855286386523
-107.87314065479264
-108.20965959552645
-107.25201263207778
-109.19649932741227
-107.00348692028206
-107.31516277632326
-107.50668280248532
-107.25392589825977
-107.45686500253586
-108.22891128766396
-106.22794424030748
-107.29028240274621
-107.3017651601887
-106.89845996007872
-107.50093378347886
-107.53926457699633
-107.45686500253586
-106.71149501462838
-107.0512497133456
-106.65811729982144
-106.86982844240028
-106.79731862832323
-106.9251874241314
-107.40897825383848
-106.81067318353342
-106.17282991311733
-106.78396520858811
-106.78587277047227
-107.25201263207778
-107.31899087750496
-108.35795929238951
-107.81552474312109
-108.17116337385062
-106.49238060017181
-107.3802532486731
-106.28307781971358
-107.3515335226062
-106.07025445786824
-107.02450075616511
-107.70803204359916
-107.3075068551147
-107.42621579224621
-105.60759267130094
-107.66774139237374
-107.84625057548914
-107.56801885150497
-107.39365759393296
-106.66574157817189
-106.86982844240028
-107.23096824818354
-106.44859429936874
-107.79440425014248
-106.9977563629639
-107.0608040189008
-107.23670734489673
-106.29829047406531
-106.37818099353123
-106.46191927626727
-107.05698222677444
-106.30019215901937
-106.22224186578306
-107.13343578872778
-106.36866809440902
-107.03596403595036
-105.4410617161211
-105.18970345946136
-105.6947125205481
-106.14433004937827
-106.66574157817189
-107.6044485416891
-107.03214284953354
-106.7343767282277
-108.54305138131731
-108.12498050479576
-107.93654280444002
-106.44478737013212
-107.16785207131288
-107.85585364194775
-107.87506155253119
-108.19425996111971
-108.41384921743035
-107.25583918784143
-108.04419351245573
-107.27497337085119
-108.34254492814443
-107.83856854885231
-108.36952107158861
-108.46011819978635
-107.69651936616009
-107.73297909619997
-108.33098516070352
-108.06342470070972
-109.36902275167276
-108.42155975486052
-107.84625057548914
-108.20773455766083
-107.87314065479264
-107.52584772849394
-107.69076334633343
-107.95383878541162
-108.16538976393
-108.16346527500357
-107.82704621963586
-108.62216861337433
-108.18463596544807
-108.31749985460075
-107.58910868786471
-106.9729263679123
-108.56041511348641
-108.38879262042985
-107.91732730318108
-106.70196195043464
-106.94428125809074
-108.62023844332002
-108.09419955374108
-106.76870554742432
-108.0653479504462
-108.13844908943823
-109.12289650830569
-108.27319924677597
-108.88489654646766
-108.67043069557204
-108.95645141267477
-108.07688794882236
-106.18233101078972
-106.79350324969114
-107.05698222677444
-106.02468672984342
-106.36676558347219
-107.20036328676912
-106.70768171956604
-106.8431104040336
-106.8431104040336
-107.29410989487897
-106.88318916727404
-106.69052303654237
-105.91272184537802
-107.0474281542224
-106.90800496030072
-106.62000145184682
-106.9251874241314
-106.18613160993954
-106.74391175899399
-107.7790456905894
-106.41623833268582
-107.06271494991894
-106.6085684984476
-107.43004661465382
-107.58910868786471
-107.25583918784143
-106.31160275025573
-107.42430041627128
-106.84501868454315
-107.01685903536644
-106.93664344561054
-106.16712952890097
-106.79159559513218
-107.4128086535656
-105.99241753301736
-106.78587277047227
-105.78946232571589
-107.6428047782262
-105.97913213015822
-107.1640276663063
-106.87937170124678
-107.15637913654497
-107.38408294427684
-107.24627297392051
-106.31160275025573
-107.26349258018415
-106.24315157969139
-106.34964401814435
-105.80273181986809
-106.65621128799643
-106.21463902019556
-107.40514794801928
-107.35344800683664
-106.93473405059784
-107.86161576622251
-107.94807324470752
-107.89427183413976
-107.20801396601763
-106.4771492017475
-108.0653479504462
-108.08650526894844
-107.61403671647423
-107.69268199598984
-108.2597189642483
-107.8174449300003
-107.85009173097849
-107.75409126097126
-107.93846448512616
-107.07035890704695
-107.7675277647591
-106.60666308699852
-108.03265594173675
-107.50285009962352
-107.75793014379119
-107.90772044254211
-108.13844908943823
-107.80016410049984
-107.2022759215193
-108.0749645562361
-106.82593692313831
-107.97882526544478
-107.63321483462283
-107.82128537480375
-107.66006816320478
-108.7901857208179
-107.34196145315984
-107.87121978076338
-108.46011819978635
-106.77442774664381
-107.61978990429098
-107.44920213609505
-107.29410989487897
-107.70227559857334
-107.48943638055849
-107.65623169023905
-108.00766080956238
-107.75984962067793
-107.99997080817465
-106.95955799890997
-108.43312628059122
-107.70611320496533
-109.13645227967446
-108.15576755784107
-107.4319620610884
-106.91182312297751
-106.00380590945113
-105.83496236231626
-106.96910671762582
-107.6044485416891
-106.00570405192173
-105.9810299765352
-105.99811161872772
-106.54760677443248
-105.80841908616833
-107.2022759215193
-106.79350324969114
-107.03405343109677
-108.50254357982799
-106.61237939058553
-105.96395017878177
-107.47602381383423
-108.00958336934907
-107.27880048834479
-107.1009384655085
-106.80304187007097
-108.27512509705745
-108.2019595873256
-107.22140355474752
-108.21350974289439
-107.64664092081767
-106.88891554043353
-107.41089344196305
-106.51903909313233
-106.87364567630564
-107.6428047782262
-108.05765509432595
-107.94230791772566
-107.39940266535118
-107.62746115153699
-107.05507136566433
-106.46191927626727
-106.55141619037828
-108.17116337385062
-107.21375222090752
-108.2712734204051
-107.5967784262104
-107.51051559945022
-106.69433591534927
-108.30016332702408
-106.86219425308859
-106.80876532040081
-106.82593692313831
-106.94237177010437
-107.09711569425046
-107.03023229125971
-107.36110617826094
-107.6217076807266
-107.80208409796302
-107.70803204359916
-107.77520628734123
-107.78096542770612
-108.07304118746055
-108.43119846632999
-108.10766546925092
-107.7272217295533
-107.89811417506934
-107.65431348915752
-108.07304118746055
-108.40421158522209
-108.37722940355977
-108.03265594173675
-108.70905121078631
-109.755479557542
-109.7788146334708
-108.29245882572837
-110.46489843067462
-110.33016739650319
-110.23456102153068
-109.24881745688187
-108.97192709961706
-109.25269358141237
-109.32635850653945
-108.4871148239668
-107.2328812570317
-107.62554330434865
-106.80685748044684
-107.31324876087821
-107.67541499924386
-107.62362548074552
-108.76313614995745
-108.25779330522448
-109.79242840204826
-109.5067927390772
-110.23846215084194
-109.72048360283173
-110.25796929244842
-109.82160483669266
-108.9506484303364
-110.12342069591477
-108.9545170609731
-109.62331450041351
-108.74381792709985
-108.07688794882236
-107.06844788280476
-106.65049339113654
-108.31172079671352
-106.46382293641709
-107.31516277632326
-106.5590352988942
-108.04611652418659
-108.55655633797232
-108.11920861179259
-107.53543107401404
-107.80016410049984
-108.75540857096644
-109.02029863281135
-108.05573193980334
-108.61444807766976
-108.37722940355977
-107.83856854885231
-109.00868808093212
-108.79984742988432
-107.88082438801226
-108.96225461332472
-108.10381794569817
-107.74833311411075
-107.3113347688624
-107.14299510844526
-107.77328662120784
-107.17932584692754
-106.96337741662954
-107.6044485416891
-108.26549608474645
-107.11240733907906
-106.96337741662954
-107.17550116161586
-106.47143780710756
-108.20773455766083
-107.11240733907906
-106.02468672984342
-106.81067318353342
-108.06727122398853
-107.39940266535118
-107.54693186547325
-107.82704621963586
-107.9192487464994
-108.01919652496933
-107.3304757434513
-106.98056594761293
-107.26540598677862
-106.77824266193004
-107.32281907241511
-107.46261239912248
-109.17131545672234
-107.23670734489673
-108.09612318448784
-107.69651936616009
-109.0512643799938
-108.25586767010353
-107.8404890199712
-108.10958926676761
-107.84240951478301
-107.49326875411978
-108.6897397471129
-107.53159766519228
-108.8636298745822
-107.7790456905894
-107.77520628734123
-107.09711569425046
-108.687808733429
-107.91732730318108
-107.86929893044241
-108.29245882572837
-106.90418689053514
-107.40706308919084
-108.22313552924004
-107.28454134017822
-107.57568755305138
-107.86929893044241
-107.87698247398002
-107.50285009962352
-107.25392589825977
-108.09419955374108
-108.60286799658797
-108.89843140892715
-108.87522951420087
-108.27897686935606
-108.27897686935606
-108.79791503972051
-109.95199414244661
-110.15460981971088
-109.3729019064708
-109.06674958662501
-108.4871148239668
-107.7982441267093
-108.79405033192069
-109.10353318959231
-109.2604461233763
-108.16154080993246
-107.48943638055849
-107.06462590424171
-106.63715244026439
-107.55843350458441
-107.78672478103846
-106.24885470977681
-107.90003538111642
-106.96528716037177
-107.63321483462283
-106.79159559513218
-107.69076334633343
-106.9003689136732
-107.01494866337367
-108.08265826945522
-107.4319620610884
-107.69651936616009
-107.2328812570317
-108.25779330522448
-107.64472283772456
-107.81168444040276
-107.8885085006422
-107.26157919699418
-107.05316052785503
-107.53159766519228
-107.26540598677862
-106.82593692313831
-107.80592416391126
-107.22714230065101
-107.11240733907906
-107.00539715260388
-108.0230419536893
-107.88658743691163
-108.3078682111072
-107.28262769948675
-108.05380880908177
-107.36876472493502
-108.12305651662679
-107.96729254500976
-106.48286080352014
-106.33062223707206
-108.10189421966014
-107.09329301627912
-105.4410617161211
-105.77619394274065
-106.54760677443248
-106.09494246330637
-105.6530405366973
-105.35597123338269
-106.19563350808174
-105.8141065566457
-106.21653969726185
-106.23934960746693
-107.85777432633745
-107.04360668828721
-107.07991437790277
-107.37067942024348
-107.31707681519853
-108.39650191104305
-108.06342470070972
-107.42238506378102
-107.99035884132522
-107.44728647822993
-108.15576755784107
-107.95960453986405
-108.02111922743748
-108.36374007418563
-108.1461459480373
-108.26549608474645
-108.36566704936236
-108.77666034333443
-107.2156650192956
-107.94807324470752
-107.25392589825977
-107.63321483462283
-109.08998031429232
-108.58356978753034
-108.62023844332002
-107.2041885796435
-107.5737703423268
-107.5335143578336
-108.1134369332864
-108.71098248985864
-107.14108319781657
-107.73873667559762
-108.9080998946268
-107.74833311411075
-107.64088674232168
-108.9293726957763
-108.08265826945522
-108.40613906370632
-108.00958336934907
-107.03978531553238
-106.72865598747714
-105.93738526900913
-106.99966652546306
-106.21463902019556
-106.54760677443248
-107.48177191563418
-107.64472283772456
-106.97101653113954
-105.92600167279488
-105.68334634818011
-106.49809275442247
-107.71762659118491
-106.53237003255448
-105.75913622543939
-106.06835554025518
-106.64096402503077
-106.77252032374363
-106.56474987235696
-105.5640506760858
-107.55651650585908
-108.50640100903867
-108.1115130881124
-108.56427398522365
-108.81337483804778
-109.28758309656203
-107.80016410049984
-107.75409126097126
-108.43698198108872
-108.62602902574508
-107.80400411909984
-107.54118136380008
-107.85393298125867
-108.48904333437382
-108.52568959695455
-108.13844908943823
-109.25656980357456
-108.74574964069998
-108.28668070092341
-107.80976432456174
-108.61251800395392
-108.87909625445411
-108.62216861337433
-108.8017798442253
-107.89042958808976
-107.56035052686143
-107.44153964560734
-107.8654573009216
-107.78672478103846
-108.45240574288995
-107.93269951429008
-108.9409772781704
-108.51218733307039
-107.99612595012267
-108.76313614995745
-108.4929004272478
-107.7675277647591
-108.61251800395392
-107.86737810382883
-108.53147664202983
-107.12770047698177
-106.91755054121779
-107.81936514056089
-108.36374007418563
-107.2405335263262
-107.70227559857334
-108.22891128766396
-108.83463458808745
-108.27705097125049
-108.31557347804001
-107.52009800361375
-107.60828374087248
-107.52776435052344
-107.46261239912248
-107.94422966964099
-109.00868808093212
-108.03073309655228
-107.26157919699418
-107.68308898387654
-108.57006247326494
-108.39071990712726
-108.11920861179259
-107.73681745882446
-108.91390127682558
-108.70711995584512
-107.74449446777218
-107.81936514056089
-108.46590279450805
-108.06727122398853
-107.64855902750661
-108.4254151674849
-108.39650191104305
-108.8017798442253
-108.26164464717588
-107.2405335263262
-108.52183168709699
-108.2597189642483
-108.93710898705362
-108.81724002945082
-108.85396417400705
-107.25583918784143
-107.36876472493502
-107.5450150080376
-108.06150147477818
-106.98629587665496
-106.58951542238435
-106.37057062830712
-106.71530840221273
-106.00380590945113
-106.98247590069522
-106.05126630824118
-106.01329684964291
-105.982927845683
-106.71721513070297
-106.45240132060802
-106.72865598747714
-106.5590352988942
-106.43336713436342
-106.78587277047227
-106.09114405758095
-105.60380593665552
-107.50285009962352
-106.46953405491941
-107.11049580183295
-105.9411799830664
-107.30559293338091
-106.50190097238006
-105.93928261466256
-106.27547204262751
-105.57162233913003
-106.42765732689946
-107.0588931111863
-106.6085684984476
-106.76870554742432
-105.65682844650884
-106.5590352988942
-106.32301416708727
-107.23670734489673
-105.99431553880979
-106.71530840221273
-106.9977563629639
-106.6104739329763
-106.6619293927847
-107.32856154053789
-106.59904167197963
-106.42575410372679
-106.93282467882625
-105.90703083185022
-106.31730835545946
-106.90991403002475
-106.9576483249307
-107.7713669787337
-108.81724002945082
-108.45047768867109
-108.06342470070972
-107.50093378347886
-108.81337483804778
-107.40514794801928
-108.22121032420407
-107.1640276663063
-108.66463845032926
-106.89082437792209
-107.0588931111863
-108.4871148239668
-107.91732730318108
-107.89811417506934
-107.12005372136574
-106.72674912017283
-107.86929893044241
-108.85009806321685
-107.40706308919084
-108.29823716581625
-106.57236962645665
-108.27897686935606
-108.82497070249737
-108.32713209641844
-107.53926457699633
-108.01150595291358
-106.54760677443248
-107.97882526544478
-107.71954557159212
-107.7617691212171
-108.43890986732698
-108.3040157212133
-108.1461459480373
-107.40897825383848
-108.07881136522035
-107.3017651601887
-107.4530335223175
-107.87121978076338
-107.68308898387654
-107.18888796906822
-106.93664344561054
-107.63129691667314
-108.12113255229272
-107.54309817414683
-107.26923287018474
-108.2809027913752
-107.2481861699091
-107.82896654861759
-107.09138171227363
-107.05698222677444
-107.81936514056089
-107.07991437790277
-106.84692698824925
-107.4396240817209
-107.51818147571993
-107.25009938929456
-108.13075261232204
-107.96729254500976
-107.49326875411978
-108.55076835510246
-107.94999506786067
-106.48857261245092
-106.39340282640627
-106.68480389173051
-107.03596403595036
-105.92979611388081
-106.6085684984476
-107.50668280248532
-107.54693186547325
-106.8526520385565
-107.4798558581888
-105.69281810191522
-105.8899590188352
-108.32713209641844
-107.11240733907906
-106.74581883458305
-107.52201455504007
-106.80685748044684
-106.46001563912469
-106.95955799890997
-106.9729263679123
-106.63524668252228
-106.48476471681157
-107.7617691212171
-106.69624238943526
-107.018769430641
-106.86601130133045
-107.87890341914007
-107.60061343680428
-106.96146769614259
-108.34639837551255
-107.22522936196474
-108.7901857208179
-107.1009384655085
-106.98438587704221
-106.56284499147932
-106.77633519270564
-106.15762934577117
-107.72338360330434
-107.14681899973701
-106.79541092742119
-106.6867102502159
-107.7713669787337
-106.77252032374363
-106.69433591534927
-106.88700672616325
-107.2041885796435
-106.9977563629639
-106.74963305520454
-106.74009767725451
-107.47793982425581
-108.38879262042985
-107.11814209079682
-107.135347605988
-108.46783104076322
-106.70768171956604
-107.7464137791186
-107.59486095627015
-106.68289755636239
-106.7648908637402
-107.22905526272362
-106.33823067413783
-108.42155975486052
-106.71912188232653
-106.02468672984342
-106.33252431192231
-106.97865601779445
-107.99804836726263
-107.42046973477439
-106.41243218516905
-106.98629587665496
-107.1009384655085
-106.86601130133045
-107.68692611787317
-107.3381327894929
-106.93282467882625
-106.77633519270564
-107.39940266535118
-106.37818099353123
-107.02067984919836
-107.71762659118491
-107.65814991492117
-106.77442774664381
-107.59294350989978
-107.07991437790277
-106.31160275025573
-107.28454134017822
-106.80113409964717
-107.96152650551899
-106.31160275025573
-107.37833843606566
-107.90964176721275
-107.25775250082376
-106.88318916727404
-106.63334094787294
-107.13917131053144
-108.04034756037878
-106.74391175899399
-107.71954557159212
-106.63524668252228
-106.54760677443248
-106.53808363791792
-106.43336713436342
-106.13483123750242
-107.52009800361375
-106.80304187007097
-107.0073074082018
-106.72293545497739
-106.26596533685998
-106.51523046063025
-106.65430529927457
-107.48752022905406
-105.95256467129978
-104.85203395102896
-106.4657266195751
-106.88318916727404
-107.96152650551899
-106.88700672616325
-106.89082437792209
-106.60094699111963
-107.40323283032278
-106.58951542238435
-106.44098053289069
-107.37067942024348
-106.29258555675928
-106.28688084576781
-106.31350459572253
-107.2061012611426
-107.39940266535118
-106.67908495497426
-107.11623048356005
-106.26026158833587
-107.49326875411978
-107.8174449300003
-106.06645664545577
-107.57760478733628
-107.76944735991775
-106.77252032374363
-105.8842688236027
-107.018769430641
-106.30399559771118
-107.11240733907906
-106.62190702487297
-107.11049580183295
-107.60253097745984
-105.50916691365897
-106.07974938817131
-106.55713048718484
-106.6485874717185
-106.18993230057539
-105.84254697256607
-105.66819271866798
-107.25966583720768
-107.93846448512616
-108.09612318448784
-107.2099266942695
-107.70035683081326
-107.23479428926913
-106.25836038464496
-107.18315062568948
-107.52393112999984
-107.69076334633343
-108.03842462003072
-107.25775250082376
-108.03457881071071
-108.46397457226084
-108.30979449194581
-106.94428125809074
-105.78567124578004
-105.30682858458451
-105.58676674867212
-106.87173704774806
-106.37247318516745
-106.48857261245092
-106.47905304598903
-106.39720851434106
-106.56855970328708
-104.94439762492287
-105.99811161872772
-106.71912188232653
-105.77429855014827
-107.61787215143771
-105.26336888790117
-106.75154020023884
-109.69132640777977
-108.8926306082431
-108.08073480543098
-107.94999506786067
-107.9211702135502
-106.95573867420389
-105.84823566863216
-106.58570508404425
-106.43717378763698
-106.59332585300525
-106.27166929158079
-106.06455777346916
-107.4587807778959
-108.06727122398853
-107.82320563272992
-107.96729254500976
-107.70035683081326
-108.31557347804001
-109.11708725714928
-108.82303799795321
-108.02881027515625
-108.11728469512548
-107.49901749085713
-107.51051559945022
-108.64340207393312
-107.99612595012267
-108.17501256642524
-108.97192709961706
-108.55848571370198
-109.23718966900094
-107.70227559857334
-108.4871148239668
-109.97146476074953
-108.73995457234491
-107.44345523298702
-108.28668070092341
-108.0653479504462
-107.32664736106138
-107.36110617826094
-107.05507136566433
-106.97674611123881
-106.84692698824925
-107.1602033547195
-107.75409126097126
-108.26549608474645
-109.96367621616213
-107.00157671123544
-106.72865598747714
-106.37057062830712
-105.30304900940754
-104.98588441292556
-107.08947043158693
-106.12723259924077
-106.66955385599054
-107.69651936616009
-109.68938279187488
-110.30674805332036
-107.22522936196474
-108.37915654645796
-108.17693719850372
-108.12498050479576
-107.26540598677862
-107.43004661465382
-107.7272217295533
-107.54884874645481
-106.93473405059784
-106.99966652546306
-106.70577510672824
-109.17325253131884
-107.57185315516148
-108.2674218393913
-107.82896654861759
-108.99320870492886
-108.82883618415659
-108.54305138131731
-109.66606132200033
-109.90527476147602
-109.64274339735985
-108.85203110651008
-106.90227789049166
-107.12005372136574
-106.96719692737022
-107.70803204359916
-109.2623843198945
-108.49097186880049
-108.28668070092341
-109.1209600669132
-106.99393610778174
-108.17886185444429
-109.24300345312807
-108.39457455243289
-107.44345523298702
-108.75154492640279
-106.61809590190596
-105.18214995692806
-105.37865757710915
-104.81623382615332
-104.976454650658
-106.29829047406531
-105.8918557960306
-106.49428462856517
-105.45619368215345
-105.8918557960306
-105.46376020548762
-107.02450075616511
-108.50447228241958
-109.58834868386765
-109.45438677916783
-110.28333230296117
-108.46975931102729
-109.21393672822434
-109.04352236003288
-108.70905121078631
-107.53926457699633
-107.90195661088623
-107.91732730318108
-108.06342470070972
-107.61595442216574
-107.82896654861759
-108.49482900971672
-109.01449324758296
-109.22943829842669
-110.45317796228078
-110.06495823572385
-109.62720008298903
-109.77686990810687
-110.12342069591477
-110.33211917066592
-110.2443140316725
-110.50397316824845
-110.44731806594969
-109.99678026883589
-109.28952163495045
-107.51051559945022
-108.8017798442253
-108.59321859115417
-108.17116337385062
-108.47747263219246
-108.87136287080968
-107.67925194433607
-106.95000986152843
-107.48560410106583
-107.3591916002276
-107.61595442216574
-108.22506075816138
-106.92709670294828
-105.9411799830664
-106.69433591534927
-107.90387786437982
-109.66217475507669
-107.94038618955437
-108.49868624672328
-108.8017798442253
-108.05573193980334
-108.04034756037878
-106.07405236153912
-106.54379745068468
-107.12578875307481
-105.8141065566457
-104.90857679918582
-104.82942241294006
-106.22224186578306
-105.17270858233323
-105.68334634818011
-106.95000986152843
-107.22331644666392
-108.26357035400832
-108.65691579418792
-106.98629587665496
-108.2809027913752
-108.0653479504462
-108.03457881071071
-106.91945972709502
-107.55843350458441
-107.39557259426843
-107.55459953068437
-108.16731427671263
-107.60061343680428
-106.8526520385565
-106.38769446680284
-105.28604203178436
-107.19845067539192
-106.60666308699852
-106.13103187268274
-108.1134369332864
-106.26976795042822
-106.06835554025518
-105.53566015498926
-105.88047547373323
-105.86340652393277
-105.28415247977486
-105.72692110057216
-107.52201455504007
-108.3290586165916
-109.32635850653945
-108.59514842409223
-108.17116337385062
-110.01236112525633
-108.76700008440042
-108.71291379306308
-107.73297909619997
-109.58252182219682
-107.89811417506934
-107.94807324470752
-107.7982441267093
-107.3075068551147
-107.1449070424184
-108.19233511424765
-107.2061012611426
-106.81067318353342
-105.13117317845239
-105.47132708911242
-105.34084880158663
-105.4410617161211
-105.61137949629939
-106.01519510603758
-108.31557347804001
-107.30559293338091
-106.9003689136732
-107.17741349259093
-106.53998821912745
-107.25583918784143
-106.75154020023884
-106.91945972709502
-106.65621128799643
-106.49047659480068
-108.16346527500357
-107.72530265461126
-107.40897825383848
-108.53340570513588
-107.54309817414683
-109.10353318959231
-107.84240951478301
-107.46261239912248
-107.06653688186996
-107.06462590424171
-108.16346527500357
-107.93269951429008
-107.13343578872778
-106.81067318353342
-107.57185315516148
-107.07226995459756
-107.16785207131288
-107.83664810142534
-107.22714230065101
-107.52393112999984
-106.57236962645665
-110.25016613676351
-110.37115989756057
-109.09772466849283
-107.75025247274961
-106.12533299678412
-106.26406406444242
-107.17167656974686
-107.01303831466178
-107.08182554200953
-107.37642364691995
-107.87314065479264
-107.7963241765905
-107.7982441267093
-108.3078682111072
-108.47361592358617
-109.2023115749011
-108.62409880751564
-107.19653808738684
-107.06271494991894
-107.25009938929456
-106.30589735145078
-105.67576935245177
-106.09304324903077
-105.63599606165526
-106.49999685188824
-105.22747634568667
-105.27470505617096
-106.55713048718484
-106.15572937772144
-107.64088674232168
-108.26549608474645
-107.94999506786067
-108.2809027913752
-108.39264721779463
-109.11127822504105
-109.0164283517047
-107.78672478103846
-108.76506810509915
-107.76560819325674
-107.2061012611426
-108.05188570216028
-106.99966652546306
-108.81724002945082
-107.98074746867997
-110.5508760817489
-109.60388806324008
-109.38260022169743
-109.94031296033695
-110.51765169344092
-110.41606908835239
-108.70711995584512
-110.08054603937597
-110.18580531059499
-110.5000652436808
-110.05326842566788
-109.8741364260321
-109.48932209916694
-109.79631827236007
-109.33993220973167
-110.51374341810336
-109.71465172027159
-108.74768137844987
-106.1500296107079
-105.14438781459477
-106.50761347202102
-107.26731941677849
-108.37722940355977
-107.69843808667582
-106.72865598747714
-107.64855902750661
-106.66764770552679
-107.03596403595036
-106.6619293927847
-107.57185315516148
-107.63896873001006
-106.40482016592223
-108.2019595873256
-108.90616614902633
-107.14299510844526
-107.60253097745984
-108.4716876053013
-107.49710122175735
-106.50951768462632
-106.62381262098529
-106.03228043914308
-106.49047659480068
-106.18613160993954
-107.018769430641
-106.82402887454266
-105.18403829898716
-105.40512906900243
-106.17092976218147
-105.66251048082063
-105.982927845683
-106.10064024309727
-105.1802616372502
-105.62084695413863
-106.01899168719059
-105.79325349636008
-105.18592666342849
-106.829753089892
-107.345790210601
-107.28071408220924
-107.16211549883589
-107.85393298125867
-107.74833311411075
-106.79731862832323
-107.52968099608921
-107.34004710960507
-107.12387705250377
-107.02832175627431
-107.02450075616511
-106.34203503034477
-106.81639691201248
-106.08544662017685
-107.10476133006091
-106.49618867998174
-107.40706308919084
-107.03214284953354
-105.57540830607279
-105.96205253730068
-106.34013284076768
-107.15637913654497
-107.34196145315984
-106.61619037504943
-105.95825732262215
-107.08947043158693
-106.96528716037177
-108.53726390347532
-106.06265892429431
-108.34254492814443
-107.70227559857334
-106.12913222454
-106.78778035552368
-107.4396240817209
-106.19943442746526
-106.69433591534927
-107.0474281542224
-106.94428125809074
-105.83496236231626
-106.63715244026439
-105.95256467129978
-107.40706308919084
-106.14243024130488
-106.48666865312154
-106.88891554043353
-105.91272184537802
-106.65430529927457
-107.77328662120784
-108.49482900971672
-108.45819004955715
-107.99804836726263
-107.8846663968971
-107.46069657675778
-107.75217185503614
-108.53533479228405
-108.57199201739873
-106.78015015431798
-107.11240733907906
-107.67541499924386
-106.8564688547616
-108.56427398522365
-107.79056446825473
-107.4798558581888
-107.24435980132779
-107.5450150080376
-107.84240951478301
-108.31364712541125
-107.09138171227363
-107.82896654861759
-107.14873098040201
-106.7572617742473
-106.80685748044684
-108.07111784249471
-107.28836869180702
-107.37642364691995
-106.10443887710392
-107.24244665213
-107.78672478103846
-106.68861663181953
-108.16346527500357
-107.13343578872778
-107.61211903436214
-106.6295295478489
-107.18888796906822
-107.0092176870768
-107.2156650192956
-107.83856854885231
-107.58335663156204
-107.3381327894929
-106.40672313626294
-107.6293790223115
-106.14433004937827
-107.36302077974743
-106.7572617742473
-106.79159559513218
-106.98247590069522
-107.64088674232168
-107.1372594465889
-107.25775250082376
-106.49809275442247
-107.01685903536644
-107.29793748069059
-106.16522944655442
-106.91182312297751
-107.23479428926913
-106.43527044950315
-107.29793748069059
-106.19753395633496
-106.74581883458305
-107.71378870126341
-107.06653688186996
-105.94876968420428
-107.12005372136574
-106.89464212255804
-107.71570763440899
-106.56094013365868
-106.6867102502159
-106.24885470977681
-105.85202824620379
-105.8501319460646
-107.86161576622251
-105.92410448636825
-105.94687222478956
-107.44345523298702
-107.64088674232168
-106.33062223707206
-107.45686500253586
-106.62762388247235
-106.26026158833587
-106.42385090354351
-106.04177308868418
-106.2241426344007
-105.68334634818011
-106.51523046063025
-105.68334634818011
-106.51713476536405
-106.10064024309727
-106.57808468417637
-105.6890293325381
-105.54323046431631
-105.86340652393277
-106.92709670294828
-106.97674611123881
-106.98247590069522
-106.57236962645665
-106.49999685188824
-106.51523046063025
-105.84254697256607
-107.7675277647591
-107.63896873001006
-107.69268199598984
-107.34770462448931
-107.27305984722011
-107.98843651926367
-107.27497337085119
-106.7572617742473
-107.52009800361375
-107.93269951429008
-107.75409126097126
-107.8846663968971
-107.34196145315984
-107.64472283772456
-107.52201455504007
-107.86161576622251
-108.33291172875522
-108.25394205888442
-107.92693475710679
-107.9922811871549
-107.39557259426843
-107.43387753101145
-108.03073309655228
-108.19425996111971
-107.10858428791519
-106.93473405059784
-106.95573867420389
-108.43698198108872
-107.50285009962352
-108.29245882572837
-107.04169599026272
-107.63321483462283
-107.89811417506934
-108.00381576131865
-107.58910868786471
-107.7464137791186
-107.73105995034672
-107.7464137791186
-106.74581883458305
-108.08265826945522
-107.17550116161586
-107.5641846420742
-107.93654280444002
-108.21350974289439
-107.8404890199712
-108.03457881071071
-107.65239531167556
-108.12113255229272
-108.15576755784107
-109.31666373764615
-107.32473320502075
-107.82320563272992
-108.47940102251583
-107.83280727764338
-107.27497337085119
-108.59900816218946
-106.49999685188824
-106.48095691324626
-105.78567124578004
-105.91651596808195
-106.31921026973147
-105.32761785284495
-106.70577510672824
-104.96136818962513
-106.26976795042822
-106.2127383660148
-106.23934960746693
-105.85202824620379
-106.78968796374332
-107.21949068621466
-107.7828851884859
-107.4587807778959
-107.95576067981132
-107.9211702135502
-107.80208409796302
-108.2809027913752
-108.41577681581299
-107.68308898387654
-107.48368799659286
-107.61211903436214
-106.93282467882625
-106.86601130133045
-107.12770047698177
-107.63705074129037
-108.24046344952137
-107.2061012611426
-108.76313614995745
-108.70711995584512
-107.49518497617855
-107.81936514056089
-107.19653808738684
-107.59869591972146
-107.79056446825473
-107.86353652171984
-108.25201647156621
-106.82402887454266
-107.52968099608921
-107.80592416391126
-107.82704621963586
-108.04996261903788
-107.0455174096068
-108.70518872503399
-108.76313614995745
-106.66574157817189
-107.5085991892044
-107.51818147571993
-106.4657266195751
-107.90195661088623
-108.2809027913752
-107.85009173097849
-107.54693186547325
-107.03787466409524
-107.30942080027488
-106.82593692313831
-108.0884288044194
-107.80016410049984
-107.70419438995707
-108.96612353505536
-108.20003464496452
-107.99420355675373
-107.00348692028206
-107.7713669787337
-108.16731427671263
-108.08265826945522
-108.4755442658829
-107.03405343109677
-107.73297909619997
-107.32281907241511
-106.71912188232653
-108.15769195135215
-107.56226757269104
-107.99035884132522
-107.22522936196474
-108.24046344952137
-108.5160450025801
-106.93664344561054
-108.02881027515625
-108.09997051744638
-107.87890341914007
-108.36374007418563
-108.67043069557204
-108.18271123791548
-108.40035670018294
-106.85074366525495
-107.51051559945022
-108.00189327285966
-107.9192487464994
-107.70803204359916
-107.66006816320478
-107.26923287018474
-107.89619299274413
-107.48177191563418
-107.59869591972146
-108.53919303871064
-107.36493540468794
-107.68692611787317
-107.85393298125867
-107.11623048356005
-107.49326875411978
-107.6734965621135
-107.28645500428469
-107.91540588359419
-108.44083777755957
-107.93269951429008
-108.23661263333621
-107.94038618955437
-108.04227052452012
-108.50447228241958
-107.28262769948675
-108.09997051744638
-108.19618483186254
-108.39650191104305
-107.86929893044241
-107.8174449300003
-108.03457881071071
-107.16785207131288
-106.90991403002475
-107.18315062568948
-108.80564474544285
-108.34447163985519
-108.8307689612736
-108.01535119137998
-107.3572770456464
-107.9634484949276
-107.18123822462675
-108.16154080993246
-106.66764770552679
-106.76679819400336
-107.85201234426924
-107.82896654861759
-108.57778079417395
-107.27305984722011
-106.55713048718484
-107.86929893044241
-108.33676493668185
-108.18848549211208
-108.33869157655872
-107.32856154053789
-107.91540588359419
-107.09520434360442
-108.44854965845236
-107.43579302442389
-107.97113669011817
-107.01303831466178
-107.93654280444002
-107.36302077974743
-108.05188570216028
-107.0455174096068
-106.33062223707206
-106.52665663456897
-107.8404890199712
-107.86353652171984
-107.82896654861759
-108.12305651662679
-107.98074746867997
-106.44669082325055
-107.13917131053144
-107.16211549883589
-107.2099266942695
-107.63705074129037
-106.38198631393537
-107.82896654861759
-106.56474987235696
-106.66955385599054
-107.6811704522998
-106.35725337317467
-106.42956057306252
-106.90418689053514
-106.2963888120379
-108.48518633757848
-107.66198643509094
-107.0474281542224
-107.42813119170675
-105.93169336854194
-106.51142192026234
-107.135347605988
-107.2481861699091
-108.0134285602569
-107.14108319781657
-107.00157671123544
-107.50285009962352
-108.0230419536893
-107.02641124457644
-106.21083773471861
-107.6044485416891
-107.00539715260388
-107.19653808738684
-105.82169016826771
-107.14873098040201
-107.40323283032278
-106.63524668252228
-108.07688794882236
-107.03787466409524
-106.43527044950315
-107.52009800361375
-106.67146002956402
-107.8404890199712
-106.40101429417716
-107.32281907241511
-107.05316052785503
-106.15192951019075
-105.97913213015822
-107.54118136380008
-106.54570210103427
-106.30209386690103
-107.39748761807418
-107.91348448773783
-106.32681815619826
-107.2386204239154
-106.31730835545946
-107.43004661465382
-105.99051955000131
-106.79731862832323
-105.9013400229339
-107.28645500428469
-106.94237177010437
-107.18123822462675
-107.75025247274961
-107.19653808738684
-107.75025247274961
-108.3290586165916
-108.09035236370784
-107.01494866337367
-108.45433382110988
-106.8221208491332
-107.52968099608921
-108.57199201739873
-108.00766080956238
-108.3020895121561
-108.18078653424787
-108.68201583709549
-109.04352236003288
-107.76944735991775
-108.70325751835209
-108.30016332702408
-107.93462114749495
-108.04996261903788
-108.58164009901198
-108.15961636871562
-108.4929004272478
-107.63321483462283
-107.74065591601263
-106.42194772634872
-105.3503001529916
-107.4396240817209
-107.90964176721275
-106.57236962645665
-106.34964401814435
-106.7305628779204
-106.36866809440902
-106.2241426344007
-106.22794424030748
-106.61809590190596
-106.34393724287007
-107.56993599155452
-107.25201263207778
-107.5507656509832
-108.24431436128292
-108.64726301635925
-107.77712597713473
-107.51626497135761
-108.18463596544807
-106.76298355663401
-107.69651936616009
-107.54309817414683
-106.90800496030072
-108.35603241303217
-108.44469367001152
-108.8810296609065
-107.89042958808976
-107.73681745882446
-107.86353652171984
-106.77824266193004
-108.50061490126286
-107.22331644666392
-108.12498050479576
-108.53919303871064
-108.11920861179259
-106.7572617742473
-107.88658743691163
-107.71954557159212
-107.56801885150497
-108.79791503972051
-107.21757784106431
-107.99804836726263
-107.3075068551147
-107.64664092081767
-108.21735998578434
-107.81936514056089
-108.47747263219246
-107.7982441267093
-109.67772161367554
-107.51243203322373
-108.26164464717588
-107.91540588359419
-107.27114634699831
-107.18888796906822
-107.96921460568517
-107.49518497617855
-107.56610173501186
-107.47219186352149
-107.62362548074552
-107.2156650192956
-107.78480497292966
-107.69076334633343
-106.49428462856517
-107.89042958808976
-108.39650191104305
-107.53159766519228
-108.31364712541125
-107.85969503442871
-105.84823566863216
-107.7963241765905
-108.03073309655228
-107.3725941390098
-107.5450150080376
-107.08755917421813
-108.05573193980334
-107.95576067981132
-107.70419438995707
-107.2921961371032
-107.84240951478301
-108.71870784747887
-107.44728647822993
-106.61428487127625
-106.43527044950315
-106.59142062615923
-107.99612595012267
-107.75793014379119
-107.29793748069059
-107.61211903436214
-106.07405236153912
-106.83166120805186
-106.92709670294828
-107.5335143578336
-106.8335693494017
-107.0225902910394
-106.85074366525495
-106.64668157539985
-107.4798558581888
-106.8335693494017
-106.88891554043353
-107.2022759215193
-107.43004661465382
-106.17282991311733
-105.5735153113156
-107.08373672943038
-106.8564688547616
-106.59713637591452
-106.26786663218824
-105.06134257819363
-107.11240733907906
-106.69052303654237
-108.58164009901198
-107.81168444040276
-107.28645500428469
-107.73105995034672
-107.43004661465382
-107.68308898387654
-107.3668500530835
-107.18123822462675
-109.04545782856886
-107.9634484949276
-108.05957827265054
-108.31942625509448
-108.60093806735057
-107.86737810382883
-109.09966081786251
-108.32713209641844
-108.91776898613247
-108.29053276020768
-108.17886185444429
-107.36493540468794
-106.80876532040081
-107.02450075616511
-107.02067984919836
-106.24315157969139
-106.62000145184682
-106.59142062615923
-105.26525819322234
-108.46011819978635
-109.42139960243023
-107.75984962067793
-108.61251800395392
-108.40999409260897
-106.78396520858811
-108.35217872617389
-108.17886185444429
-107.66582304967443
-108.36181312296522
-107.12387705250377
-107.99997080817465
-107.14299510844526
-108.2423888934546
-107.98651422096938
-108.43698198108872
-107.99420355675373
-106.71149501462838
-106.88891554043353
-107.11431889965444
-108.6337501395627
-106.52284781777607
-106.28688084576781
-107.12578875307481
-107.74065591601263
-106.35535099998593
-107.10858428791519
-106.9882058995343
-107.12005372136574
-107.10858428791519
-107.63321483462283
-106.17853050311841
-106.66955385599054
-107.20801396601763
-107.07800323710914
-107.47027592362842
-106.18233101078972
-107.14873098040201
-107.22714230065101
-107.40131773610035
-108.47747263219246
-107.90003538111642
-108.00381576131865
-108.09227594681472
-108.3541055576273
-107.74833311411075
-107.85585364194775
-107.8885085006422
-107.06462590424171
-106.38008364224983
-106.25265691101053
-107.53543107401404
-107.7425751800705
-107.0073074082018
-106.86219425308859
-107.61787215143771
-107.37833843606566
-106.7648908637402
-107.99612595012267
-106.03607743056507
-107.63129691667314
-106.86601130133045
-108.34254492814443
-107.96537050809086
-108.57585117785224
-107.27880048834479
-108.20773455766083
-107.90195661088623
-107.31707681519853
-107.41472388864706
-108.58164009901198
-105.85582091460614
-109.31084716960542
-109.61942901622892
-108.31942625509448
-107.34961906182407
-108.07881136522035
-107.14108319781657
-107.3017651601887
-108.1115130881124
-107.29985130872835
-107.53543107401404
-107.65047715779224
-106.86219425308859
-107.31516277632326
-108.91583511936092
-107.25392589825977
-108.14037326832154
-107.07418102545748
-107.85777432633745
-107.0455174096068
-107.76368864540974
-107.49135255558006
-107.73873667559762
-106.58570508404425
-106.19183268020291
-105.61705990322518
-107.27880048834479
-106.34203503034477
-107.0760921196277
-107.6428047782262
-107.84240951478301
-108.2019595873256
-108.43312628059122
-109.0125581677476
-109.13645227967446
-108.39071990712726
-108.18078653424787
-106.45620843385751
-106.71530840221273
-107.6044485416891
-106.99584622373715
-106.92709670294828
-107.39940266535118
-106.59904167197963
-107.2022759215193
-106.20323543836093
-107.57185315516148
-106.49238060017181
-105.95256467129978
-106.48095691324626
-107.152555011775
-107.1449070424184
-107.10858428791519
-108.16538976393
-107.22331644666392
-107.38216808474317
-107.66198643509094
-106.1500296107079
-107.02641124457644
-106.51523046063025
-107.42046973477439
-107.32090496324349
-107.03596403595036
-107.81168444040276
-108.47747263219246
-107.22331644666392
-106.0987409603387
-107.00157671123544
-107.20801396601763
-107.08373672943038
-106.86982844240028
-107.39940266535118
-107.05698222677444
-105.96015491858108
-106.48286080352014
-107.04933892213502
-106.18803194382126
-108.25779330522448
-108.4716876053013
-109.04545782856886
-108.65498519041677
-108.25201647156621
-108.42155975486052
-108.25009090814794
-108.62795926806348
-106.87937170124678
-106.83166120805186
-106.91373223915994
-107.19462552275286
-106.67527244604398
-107.6734965621135
-107.96152650551899
-107.04360668828721
-105.59244627476376
-106.91755054121779
-106.40101429417716
-106.48095691324626
-106.7305628779204
-106.93091533029472
-105.32950792101634
-105.23880995867594
-105.3975653359223
-105.03304158385383
-105.31816784874844
-105.58487361846568
-107.54118136380008
-107.95383878541162
-107.3113347688624
-106.02468672984342
-106.27737345252356
-107.10476133006091
-107.83088690128645
-108.09227594681472
-106.9882058995343
-107.61211903436214
-109.24494142997506
-108.72643359127542
-108.76506810509915
-108.96805803231287
-108.77086411548557
-106.74772593331957
-106.91182312297751
-106.74581883458305
-107.6639047305805
-106.64096402503077
-107.94999506786067
-106.28497932128064
-107.70995090585946
-107.65623169023905
-107.34961906182407
-107.97498093026061
-107.12005372136574
-108.14037326832154
-106.99393610778174
-105.99811161872772
-107.90387786437982
-107.11623048356005
-108.0134285602569
-107.16976430885096
-107.2041885796435
-107.70611320496533
-106.72484227600657
-108.21350974289439
-107.15446706248488
-106.39530565888644
-107.33621849282243
-105.92600167279488
-107.64472283772456
-108.58549950011616
-107.46261239912248
-106.8221208491332
-107.6639047305805
-107.7464137791186
-106.70958835553246
-106.89464212255804
-106.02848353890501
-106.59523110292336
-106.66574157817189
-107.46452824499092
-107.68500753906737
-106.50951768462632
-107.6293790223115
-106.82402887454266
-107.97498093026061
-106.72484227600657
-107.56226757269104
-107.42813119170675
-107.89619299274413
-107.03023229125971
-108.10766546925092
-107.17741349259093
-106.61619037504943
-106.89273323862996
-106.72865598747714
-107.15446706248488
-107.26731941677849
-107.48752022905406
-106.6485874717185
-107.86929893044241
-107.36493540468794
-107.21183944589912
-106.34964401814435
-107.26540598677862
-107.96729254500976
-107.45111781745726
-105.81221071046534
-106.63715244026439
-107.40706308919084
-106.74772593331957
-106.9729263679123
-106.65239933365491
-106.19563350808174
-106.85456043505839
-106.86601130133045
-106.70386851701808
-106.76870554742432
-107.29793748069059
-106.6104739329763
-107.98651422096938
-107.69843808667582
-106.88891554043353
-108.09035236370784
-109.00094819869453
-108.19618483186254
-108.43119846632999
-109.59806061159465
-108.90036505760847
-108.09035236370784
-107.7425751800705
-106.99202601509676
-108.20003464496452
-108.31557347804001
-108.14999452041236
-108.45626192333197
-108.27319924677597
-107.8404890199712
-108.16923881335252
-108.99901328883634
-109.72825979131693
-109.26626078617046
-108.83463458808745
-108.33098516070352
-109.07449277342154
-108.2481653686286
-108.47361592358617
-108.34061824037924
-109.25850795126999
-108.41384921743035
-108.6627077501335
-107.9845919464413
-108.00189327285966
-108.57778079417395
-108.15961636871562
-109.60194555477186
-109.02997476065887
-109.20037413469063
-108.15769195135215
-108.59900816218946
-108.23661263333621
-106.90800496030072
-106.83929391260055
-107.05507136566433
-106.57617964187317
-106.8431104040336
-108.20773455766083
-106.39150001689957
-106.36866809440902
-106.51523046063025
-107.47219186352149
-107.4530335223175
-106.65811729982144
-106.62000145184682
-108.18656071684663
-107.79440425014248
-106.7706129240041
-106.73628368809354
-107.018769430641
-106.68480389173051
-106.59904167197963
-107.05698222677444
-107.70611320496533
-107.4798558581888
-106.82593692313831
-107.46069657675778
-108.06727122398853
-107.3075068551147
-106.58761024167966
-106.68289755636239
-106.67717868895235
-107.25201263207778
-107.79440425014248
-107.18697549790924
-108.15961636871562
-106.69052303654237
-107.47410782692312
-106.50951768462632
-106.63715244026439
-107.3304757434513
-107.40131773610035
-107.0474281542224
-106.27166929158079
-107.31899087750496
-107.42430041627128
-106.63715244026439
-106.86982844240028
-106.73628368809354
-106.50761347202102
-107.60253097745984
-106.17092976218147
-107.09520434360442
-106.70768171956604
-107.18888796906822
-107.5335143578336
-109.39229914878254
-108.22506075816138
-109.00868808093212
-108.57778079417395
-108.0653479504462
-107.80400411909984
-107.22140355474752
-106.77252032374363
-106.15762934577117
-106.66002333475055
-105.75155560700871
-105.91272184537802
-106.35535099998593
-105.53755269848892
-107.1372594465889
-106.53998821912745
-105.72123675806186
-106.48857261245092
-105.99431553880979
-106.36486309549574
-105.6378898017947
-109.02803948650477
-107.68692611787317
-108.2712734204051
-108.53726390347532
-108.4871148239668
-108.20003464496452
-107.65814991492117
-107.62362548074552
-106.94237177010437
-107.96152650551899
-107.84817114138544
-108.51797387338445
-106.58570508404425
-107.96729254500976
-106.57808468417637
-107.65431348915752
-108.08265826945522
-108.09419955374108
-108.37722940355977
-107.80400411909984
-108.34447163985519
-107.10284988612244
-108.63761084102521
-107.8654573009216
-107.96729254500976
-107.37067942024348
-107.606366129493
-108.12690451680066
-108.69553293289643
-107.2156650192956
-108.05380880908177
-107.85585364194775
-107.43387753101145
-107.94807324470752
-106.94237177010437
-107.5967784262104
-107.911563115611
-108.69939517737178
-107.37450888123499
-106.77633519270564
-107.59869591972146
-107.92693475710679
-108.39071990712726
-107.13917131053144
-107.32856154053789
-106.81639691201248
-107.54884874645481
-107.19845067539192
-107.83664810142534
-108.03842462003072
-107.69460066926509
-107.70227559857334
-106.52284781777607
-106.97865601779445
-106.88700672616325
-107.00348692028206
-107.44920213609505
-106.54760677443248
-107.05316052785503
-107.18506305011665
-107.02450075616511
-106.82784499492111
-106.34964401814435
-106.65239933365491
-107.1372594465889
-106.72484227600657
-106.4733415823077
-106.12153386039479
-106.6485874717185
-107.79440425014248
-105.99621356737961
-106.38008364224983
-107.44153964560734
-107.7617691212171
-107.85009173097849
-107.61211903436214
-107.26540598677862
-107.4530335223175
-107.63129691667314
-108.0230419536893
-107.42046973477439
-107.29602367607443
-107.65431348915752
-107.6811704522998
-108.38108371332024
-107.11431889965444
-108.2597189642483
-107.58910868786471
-108.2481653686286
-108.76893208786223
-108.2423888934546
-107.6217076807266
-108.8423661320616
-107.3515335226062
-107.7963241765905
-106.83929391260055
-107.2041885796435
-108.10766546925092
-107.52968099608921
-108.15769195135215
-107.4549492506767
-108.28668070092341
-108.67043069557204
-108.2597189642483
-107.55843350458441
-107.13343578872778
-108.04611652418659
-107.68308898387654
-107.29985130872835
-107.33430421959262
-107.04360668828721
-107.84240951478301
-108.16346527500357
-106.77252032374363
-106.58379994947713
-106.32111220694041
-107.00348692028206
-106.91564137857306
-106.24125058212982
-106.36105818842012
-104.91988777089469
-105.43538760025162
-108.18848549211208
-110.5000652436808
-110.43950522115944
-106.91945972709502
-107.49518497617855
-107.52201455504007
-106.33062223707206
-107.3802532486731
-106.91182312297751
-106.47905304598903
-107.10476133006091
-106.03038197762653
-105.32950792101634
-106.71340169685485
-105.3011592554795
-106.40291721856063
-106.07595134759882
-106.26786663218824
-106.52856107752372
-105.33139801164062
-105.08021269790031
-106.42194772634872
-107.0073074082018
-107.36110617826094
-107.98651422096938
-107.4128086535656
-106.90609591380449
-107.9634484949276
-107.3725941390098
-106.37818099353123
-107.05507136566433
-106.44478737013212
-106.93282467882625
-106.89845996007872
-107.79056446825473
-107.5335143578336
-108.01535119137998
-106.30779912812079
-107.34196145315984
-106.2963888120379
-107.8174449300003
-107.7272217295533
-107.84817114138544
-106.48286080352014
-106.4771492017475
-106.39911139277098
-108.3290586165916
-106.57236962645665
-106.829753089892
-108.28668070092341
-107.80592416391126
-106.93473405059784
-108.12690451680066
-108.03842462003072
-107.1449070424184
-107.1640276663063
-107.28071408220924
-106.87364567630564
-107.55268257905941
-108.2423888934546
-107.2156650192956
-107.89811417506934
-106.8564688547616
-106.95000986152843
-108.635680478247
-106.88318916727404
-106.91182312297751
-107.46069657675778
-108.25779330522448
-107.73105995034672
-107.90579914159812
-106.61428487127625
-107.03978531553238
-108.57778079417395
-107.80208409796302
-107.40514794801928
-109.15581973705619
-108.33676493668185
-108.99514354195452
-108.73995457234491
-107.96152650551899
-107.35344800683664
-107.86737810382883
-106.97101653113954
-107.72146457563161
-108.17116337385062
-107.63513277616158
-108.2481653686286
-107.4128086535656
-108.89456418424541
-107.72914082813146
-107.63321483462283
-106.31540646412346
-108.29823716581625
-107.60828374087248
-107.80208409796302
-108.06342470070972
-107.5085991892044
-106.71340169685485
-106.90418689053514
-108.21158465727066
-108.15576755784107
-107.14108319781657
-108.43890986732698
-107.57760478733628
-107.4549492506767
-107.63129691667314
-107.928856319097
-108.43505411884381
-107.09902706821816
-107.49518497617855
-107.5967784262104
-107.1449070424184
-107.83280727764338
-107.44537084386086
-107.42430041627128
-108.8269034312315
-107.96921460568517
-108.65691579418792
-107.8654573009216
-106.17473008691815
-107.07035890704695
-107.69843808667582
-109.16937840649219
-108.64726301635925
-107.92501321885291
-107.60828374087248
-107.64855902750661
-108.01150595291358
-108.0884288044194
-109.0822363492896
-108.50061490126286
-108.00766080956238
-107.8885085006422
-107.76944735991775
-108.09804683905594
-108.08458175729405
-107.27305984722011
-107.1602033547195
-106.58570508404425
-106.32872018516434
-107.71378870126341
-106.98629587665496
-106.40672313626294
-106.62571824018474
-107.018769430641
-106.85074366525495
-107.0225902910394
-106.93664344561054
-106.97674611123881
-105.95825732262215
-105.77998479593815
-106.95955799890997
-107.0588931111863
-104.88407244127447
-107.67541499924386
-107.48560410106583
-107.64472283772456
-108.30016332702408
-108.94871415139934
-108.34254492814443
-106.87173704774806
-106.49238060017181
-105.75155560700871
-106.5590352988942
-106.57427462263355
-107.17741349259093
-106.06835554025518
-106.66764770552679
-107.54693186547325
-107.47410782692312
-108.39457455243289
-109.09191636635268
-108.88489654646766
-107.911563115611
-108.88296309157737
-108.27512509705745
-109.1248329740398
-107.7963241765905
-108.04996261903788
-108.37915654645796
-107.96729254500976
-106.86410276560648
-108.77086411548557
-106.8526520385565
-107.81168444040276
-107.09138171227363
-107.7713669787337
-107.19080046359453
-107.92309170433437
-107.24627297392051
-107.57952204518236
-109.02803948650477
-108.1115130881124
-107.86161576622251
-108.31942625509448
-109.82355012989554
-109.71270780870887
-107.38216808474317
-109.48544000458692
-109.32248052565237
-109.4718534461055
-107.93077790482441
-107.6734965621135
-106.67717868895235
-106.28878239317602
-107.09520434360442
-106.520943443936
-106.98056594761293
-106.49428462856517
-107.52584772849394
-106.41623833268582
-105.61895341738497
-105.5735153113156
-106.24125058212982
-106.14433004937827
-107.24244665213
-108.45819004955715
-107.8174449300003
-107.41855442925048
-107.9634484949276
-108.76506810509915
-107.9576825979618
-107.75793014379119
-107.17550116161586
-110.23846215084194
-109.84300442062592
-109.25075550694366
-109.5048514587264
-110.22285823147148
-109.31666373764615
-109.78659378171292
-110.47271257690036
-109.87608238650441
-108.15769195135215
-107.01685903536644
-107.28836869180702
-107.38408294427684
-106.7706129240041
-106.78968796374332
-107.83856854885231
-106.77442774664381
-107.4319620610884
-107.82704621963586
-107.08564794016627
-106.6485874717185
-107.24627297392051
-107.33238996980258
-108.2809027913752
-107.86737810382883
-107.80400411909984
-108.64340207393312
-109.18681273583525
-107.69651936616009
-108.77279616727138
-107.345790210601
-108.05765509432595
-108.4871148239668
-108.30016332702408
-108.17693719850372
-108.35217872617389
-108.2674218393913
-108.4929004272478
-109.25075550694366
-109.53785656252828
-108.2481653686286
-108.66463845032926
-108.6491935237215
-108.99320870492886
-108.70518872503399
-107.09711569425046
-105.6378898017947
-105.5640506760858
-104.82377002821529
-106.18993230057539
-106.83547751394248
-106.18233101078972
-106.74772593331957
-106.7706129240041
-107.80208409796302
-107.85009173097849
-108.43698198108872
-108.7901857208179
-108.78438898545363
-108.66463845032926
-108.41192164302932
-108.70325751835209
-109.25656980357456
-109.65828828662379
-107.95383878541162
-109.35156776610285
-108.23276191271964
-109.01449324758296
-106.79541092742119
-106.99584622373715
-107.57952204518236
-106.27737345252356
-106.89082437792209
-106.43717378763698
-106.81448897933831
-107.11431889965444
-107.65623169023905
-107.52201455504007
-107.2921961371032
-106.23744865570164
-106.24125058212982
-107.2156650192956
-107.55651650585908
-106.08354752002084
-106.65811729982144
-107.87698247398002
-106.23174593778243
-106.90991403002475
-106.14622988030264
-107.27305984722011
-106.26976795042822
-107.37642364691995
-107.25009938929456
-106.29068396350618
-108.0653479504462
-106.90609591380449
-106.829753089892
-107.30367903507256
-107.25392589825977
-106.29068396350618
-106.54189282338274
-106.97101653113954
-106.49809275442247
-105.60001929235581
-107.06844788280476
-106.86219425308859
-108.31364712541125
-107.69268199598984
-106.75154020023884
-106.54379745068468
-107.35536251451639
-107.70035683081326
-107.43770854132673
-107.05698222677444
-107.29410989487897
-106.92136893620572
-106.93091533029472
-107.08564794016627
-107.06271494991894
-106.6104739329763
-106.9251874241314
-107.87890341914007
-106.67527244604398
-106.81830486786905
-107.34196145315984
-106.51332617893
-106.19753395633496
-106.73246979150363
-106.40482016592223
-106.38769446680284
-107.44920213609505
-106.83738570167512
-107.41663914720837
-106.70958835553246
-107.2328812570317
-106.59904167197963
-106.74200470655147
-106.69814888664419
-106.77633519270564
-107.57185315516148
-107.47410782692312
-106.62000145184682
-106.59332585300525
-107.08564794016627
-106.70577510672824
-107.55651650585908
-106.91945972709502
-108.58742923677048
-108.76506810509915
-107.6715781485923
-107.94807324470752
-107.96729254500976
-106.71721513070297
-108.8926306082431
-107.67541499924386
-108.13267669584044
-107.7713669787337
-107.80400411909984
-107.48560410106583
-107.95191691476171
-108.02688747754775
-106.9729263679123
-107.50093378347886
-107.92693475710679
-108.15191884237214
-106.84692698824925
-107.99804836726263
-108.00766080956238
-108.53533479228405
-107.28454134017822
-107.1449070424184
-107.77712597713473
-108.44083777755957
-108.45433382110988
-107.87506155253119
-108.3541055576273
-107.71378870126341
-107.70227559857334
-108.2809027913752
-107.58910868786471
-108.34832513511748
-108.07304118746055
-108.2423888934546
-107.67925194433607
-107.72146457563161
-108.31942625509448
-107.76944735991775
-106.47143780710756
-106.49999685188824
-107.46452824499092
-107.75984962067793
-107.8846663968971
-108.22313552924004
-107.13917131053144
-107.7617691212171
-107.42621579224621
-107.84433003328866
-108.0134285602569
-107.07226995459756
-106.87364567630564
-108.01919652496933
-106.4676303257422
-107.26540598677862
-106.80304187007097
-107.84433003328866
-107.3725941390098
-107.85201234426924
-106.92900600500236
-108.27705097125049
-107.55268257905941
-107.94615144530128
-108.06727122398853
-108.02688747754775
-107.17550116161586
-107.66582304967443
-107.70995090585946
-107.30367903507256
-107.57760478733628
-107.07991437790277
-108.2809027913752
-107.31324876087821
-106.73819067110216
-106.59713637591452
-107.16593985713162
-106.45240132060802
-106.77252032374363
-106.84120214671974
-106.40672313626294
-106.65430529927457
-106.8526520385565
-107.4587807778959
-106.27737345252356
-107.67925194433607
-106.43336713436342
-107.0455174096068
-107.08947043158693
-106.76679819400336
-106.92136893620572
-106.00190778976256
-107.3075068551147
-108.0653479504462
-107.32664736106138
-107.84625057548914
-108.40035670018294
-107.69076334633343
-108.7322281525888
-108.62023844332002
-108.59707828110368
-109.09966081786251
-108.95645141267477
-109.12676946411655
-108.47747263219246
-108.5160450025801
-108.21158465727066
-108.12498050479576
-109.0319100591073
-109.78270415823255
-108.57778079417395
-108.51025853436306
-106.99966652546306
-105.61895341738497
-107.19462552275286
-107.3572770456464
-107.60828374087248
-108.12882855264245
-105.90703083185022
-106.99584622373715
-107.41855442925048
-107.30942080027488
-106.38769446680284
-108.34639837551255
-107.20801396601763
-108.2963110285317
-107.61403671647423
-106.93473405059784
-107.47219186352149
-107.1009384655085
-108.16154080993246
-107.22905526272362
-106.00380590945113
-107.7924843473642
-107.23479428926913
-107.7617691212171
-107.31516277632326
-107.83664810142534
-108.44083777755957
-107.3381327894929
-107.70227559857334
-108.17308795820787
-108.00766080956238
-107.47793982425581
-108.04227052452012
-108.27705097125049
-108.41770443817828
-107.66774139237374
-107.72146457563161
-107.80784423239824
-108.70325751835209
-108.56234453732664
-109.10159699156203
-107.71570763440899
-107.06271494991894
-108.46397457226084
-107.11623048356005
-107.9211702135502
-107.16593985713162
-106.7706129240041
-107.34770462448931
-108.3020895121561
-107.56801885150497
-107.2386204239154
-106.66955385599054
-106.90800496030072
-106.23174593778243
-107.14873098040201
-107.40706308919084
-106.99584622373715
-107.504766439292
-106.28307781971358
-107.74065591601263
-106.83547751394248
-106.60475769862815
-107.55268257905941
-106.33252431192231
-106.31160275025573
-106.87937170124678
-107.39748761807418
-106.94810030380185
-107.3802532486731
-107.10667279732482
-106.70768171956604
-107.50668280248532
-108.41770443817828
-107.66774139237374
-108.24623985300725
-106.78015015431798
-107.8846663968971
-107.84433003328866
-108.07688794882236
-107.3725941390098
-107.9192487464994
-107.78672478103846
-107.98843651926367
-107.97882526544478
-107.95383878541162
-107.94807324470752
-107.43004661465382
-108.65112405518452
-107.3113347688624
-106.20133492147362
-107.04169599026272
-107.79440425014248
-108.32520560018315
-108.09419955374108
-108.17886185444429
-106.65049339113654
-106.72293545497739
-106.50190097238006
-106.78396520858811
-107.30942080027488
-106.2241426344007
-107.53543107401404
-105.5394452645427
-106.6485874717185
-107.08564794016627
-106.4733415823077
-106.98247590069522
-105.74208034378093
-105.78188025654507
-106.74772593331957
-106.07215339829594
-105.80462755261672
-106.7572617742473
-107.00539715260388
-106.57046465334147
-106.4676303257422
-106.50570928244552
-106.40862612958371
-106.65621128799643
-105.84823566863216
-106.20513597812818
-106.57427462263355
-106.93664344561054
-105.59055307682021
-106.46191927626727
-106.12913222454
-106.13673095418127
-106.54570210103427
-106.59904167197963
-106.26026158833587
-105.25959034451999
-105.8823721373067
-106.02089001195084
-105.52052061882915
-106.78968796374332
-105.57162233913003
-107.00539715260388
-106.8335693494017
-107.32090496324349
-108.74768137844987
-107.68308898387654
-107.70035683081326
-108.40806656616827
-108.23661263333621
-108.61251800395392
-108.41192164302932
-108.23853802948221
-108.2019595873256
-107.25009938929456
-106.36866809440902
-107.38791273373891
-106.52665663456897
-107.17550116161586
-108.10766546925092
-106.8526520385565
-107.22331644666392
-107.81168444040276
-106.90227789049166
-106.70958835553246
-107.23479428926913
-107.02641124457644
-107.29410989487897
-107.18697549790924
-106.6485874717185
-106.44859429936874
-106.23174593778243
-107.08373672943038
-106.18233101078972
-107.85009173097849
-106.90418689053514
-106.63143523631547
-107.09902706821816
-107.43770854132673
-107.30367903507256
-106.98629587665496
-106.36676558347219
-107.2481861699091
-105.69281810191522
-106.31350459572253
-106.67717868895235
-105.95446219898244
-106.66383547392483
-107.4549492506767
-107.72338360330434
-107.89235069925533
-108.40228413071459
-106.89082437792209
-106.76679819400336
-108.41384921743035
-108.51990276822308
-107.81168444040276
-107.15446706248488
-107.4530335223175
-107.79440425014248
-107.51051559945022
-107.46452824499092
-107.32664736106138
-106.33252431192231
-108.24046344952137
-107.85777432633745
-107.29793748069059
-108.02688747754775
-107.28454134017822
-106.45811202498842
-107.01685903536644
-108.13652493439758
-107.28836869180702
-107.606366129493
-105.9411799830664
-106.02468672984342
-108.59900816218946
-108.04034756037878
-107.12005372136574
-106.89464212255804
-106.25455804598323
-106.62762388247235
-107.22140355474752
-106.96719692737022
-105.48078620039185
-105.60759267130094
-106.06076009793036
-106.25075579894205
-107.07991437790277
-106.56284499147932
-106.30970092772213
-106.20703654077622
-107.02450075616511
-106.49238060017181
-106.454304865731
-106.62381262098529
-106.11203641910122
-107.22714230065101
-107.3802532486731
-107.51434849052586
-106.78205766987031
-105.39189277221777
-105.75913622543939
-107.12005372136574
-107.08373672943038
-105.50538252560096
-106.71721513070297
-107.06271494991894
-107.71570763440899
-108.56427398522365
-107.56610173501186
-107.75601069055594
-107.42430041627128
-108.34254492814443
-108.54112219799099
-107.7982441267093
-107.98651422096938
-107.84625057548914
-106.73628368809354
-107.71570763440899
-107.90772044254211
-108.13075261232204
-108.1115130881124
-108.07304118746055
-107.78864461281314
-108.59128878228852
-106.99393610778174
-108.47940102251583
-108.13267669584044
-107.5335143578336
-107.59294350989978
-107.25201263207778
-107.2156650192956
-107.27497337085119
-108.57778079417395
-107.27114634699831
-107.3725941390098
-107.46644411436411
-108.8636298745822
-107.70227559857334
-107.66006816320478
-108.22121032420407
-107.56610173501186
-105.8728890466461
-107.2328812570317
-106.77252032374363
-108.89649778447313
-109.49708658268285
-109.49514542500687
-107.03214284953354
-104.91611735798459
-105.32194778303864
-105.01794977282897
-106.14433004937827
-106.23364682086036
-106.37437576499096
-106.16522944655442
-105.64735884155597
-107.99035884132522
-107.5737703423268
-109.31860264253964
-109.48349899408795
-109.44274343758687
-109.39811879877735
-109.59417576675652
-109.0164283517047
-108.01150595291358
-105.51295139187809
-105.33895859868437
-105.47132708911242
-105.03681475968165
-105.16893218913856
-106.14622988030264
-105.36920454063792
-106.59523110292336
-106.13103187268274
-106.31921026973147
-106.90418689053514
-106.17853050311841
-107.68884472029481
-107.26157919699418
-109.16163044921545
-106.14433004937827
-108.92163679238794
-109.04352236003288
-107.98843651926367
-108.34254492814443
-107.70803204359916
-109.29339878500848
-109.29727603278133
-108.8868300255784
-108.02688747754775
-107.9845919464413
-109.22750051677566
-108.37337518965185
-107.99420355675373
-108.13652493439758
-107.80976432456174
-106.80876532040081
-107.63129691667314
-106.74772593331957
-108.08650526894844
-108.78825345152549
-108.25586767010353
-107.3017651601887
-107.02067984919836
-106.92136893620572
-108.73029660800944
-107.1009384655085
-108.17886185444429
-107.18506305011665
-106.42194772634872
-107.54693186547325
-105.18214995692806
-105.25014437838125
-108.10958926676761
-107.69651936616009
-109.30115337827701
-109.95199414244661
-110.08054603937597
-109.87024457926657
-110.44927133970232
-108.94291146010173
-108.2597189642483
-110.36920762393949
-109.6991011177359
-109.33411476166835
-108.25394205888442
-107.49901749085713
-106.11203641910122
-106.35154632247169
-107.48368799659286
-108.54498058869069
-107.93077790482441
-108.93710898705362
-110.22675906185351
-109.17325253131884
-107.89042958808976
-110.29308842909498
-109.87608238650441
-104.98022648871388
-105.39945623546113
-104.91988777089469
-105.33706841823958
-105.46754360226001
-106.4733415823077
-106.66002333475055
-106.55713048718484
-107.4396240817209
-106.65049339113654
-106.27357065564692
-107.66198643509094
-107.21949068621466
-106.84501868454315
-106.57617964187317
-107.21375222090752
-108.07111784249471
-108.09804683905594
-108.05188570216028
-106.87364567630564
-106.19563350808174
-106.53808363791792
-108.4755442658829
-106.08544662017685
-106.49047659480068
-106.00190778976256
-107.21757784106431
-106.63143523631547
-105.80273181986809
-108.15191884237214
-107.84433003328866
-107.85777432633745
-107.31707681519853
-107.3381327894929
-107.81168444040276
-107.85201234426924
-108.37915654645796
-106.39911139277098
-105.90323693650627
-107.19080046359453
-106.76679819400336
-108.17116337385062
-106.99584622373715
-107.44920213609505
-107.58143932659063
-108.40035670018294
-109.96757043890611
-108.61444807766976
-108.58549950011616
-108.687808733429
-107.4530335223175
-106.47905304598903
-106.62190702487297
-107.57185315516148
-109.23718966900094
-108.27705097125049
-107.3668500530835
-106.3477417367689
-106.52284781777607
-106.35915576931909
-106.06835554025518
-105.66061644676957
-105.43727894970253
-106.52284781777607
-106.26596533685998
-105.68524065367295
-105.7136579517228
-106.18423129892933
-105.56783646247018
-105.46376020548762
-106.17282991311733
-106.47524538052068
-106.875554328074
-107.0588931111863
-108.52568959695455
-109.02223380979822
-108.74574964069998
-107.91732730318108
-108.09035236370784
-108.21350974289439
-107.60253097745984
-106.95382904672852
-108.27512509705745
-107.88082438801226
-109.32441950387361
-107.86929893044241
-107.63321483462283
-106.94428125809074
-107.8404890199712
-106.70196195043464
-107.96152650551899
-107.93654280444002
-106.59904167197963
-106.88509793511041
-107.61595442216574
-106.90991403002475
-108.17501256642524
-108.85009806321685
-108.0749645562361
-106.58570508404425
-107.75601069055594
-107.63321483462283
-108.48132943685395
-108.58356978753034
-109.44274343758687
-108.77472824322065
-109.66606132200033
-108.92550469559991
-107.42621579224621
-107.14108319781657
-105.54512309803796
-105.92600167279488
-106.20133492147362
-107.1640276663063
-108.06150147477818
-106.9882058995343
-107.71570763440899
-107.53734781373461
-108.15769195135215
-106.11583532710681
-107.28262769948675
-107.03405343109677
-107.04933892213502
-106.51332617893
-107.81168444040276
-107.8885085006422
-108.47747263219246
-109.11515088877583
-109.77103588007094
-109.21199914170596
-108.89069705646511
-109.60583059629604
-109.58640637206562
-109.9091674986918
-109.02610423664393
-109.1945619603424
-108.77279616727138
-110.12536982969434
-110.16435772645362
-109.30115337827701
-108.53726390347532
-108.31172079671352
-109.13451566786972
-107.61978990429098
-107.23479428926913
-105.21992105177154
-105.76103143670038
-107.38791273373891
-107.75793014379119
-107.30942080027488
-107.28454134017822
-107.85009173097849
-108.54690982011203
-108.13075261232204
-107.6639047305805
-108.10574169556143
-108.2597189642483
-108.1480702223011
-107.94615144530128
-107.73681745882446
-107.47793982425581
-107.93269951429008
-108.56041511348641
-105.888062264366
-105.42025761472352
-104.95571113428863
-106.51713476536405
-108.31172079671352
-108.89456418424541
-107.96921460568517
-107.71186979174723
-108.53533479228405
-108.8810296609065
-108.94677989671521
-109.6932700483173
-110.12342069591477
-106.49618867998174
-105.62463409543093
-105.19159189105474
-105.66251048082063
-105.38622041086195
-105.62463409543093
-105.10474719226599
-105.68524065367295
-105.47511066605219
-106.08544662017685
-104.87276400524763
-106.70958835553246
-104.9425121179652
-105.20481153906374
-105.97154097234036
-105.32194778303864
-104.93874117084437
-105.90513387281142
-105.9013400229339
-106.06076009793036
-106.51713476536405
-105.61327294268331
-106.17473008691815
-106.27166929158079
-107.7675277647591
-106.77252032374363
-107.44728647822993
-106.88891554043353
-107.34196145315984
-107.24244665213
-107.0760921196277
-108.04611652418659
-105.33895859868437
-106.36676558347219
-108.10766546925092
-108.93130673222856
-108.78438898545363
-107.79440425014248
-108.03457881071071
-107.16976430885096
-106.71149501462838
-106.2963888120379
-107.11049580183295
-107.3381327894929
-107.91732730318108
-107.30559293338091
-107.47027592362842
-106.51903909313233
-107.42621579224621
-106.22224186578306
-107.33238996980258
-106.29829047406531
-107.17550116161586
-106.80304187007097
-106.47905304598903
-106.6867102502159
-106.94428125809074
-107.12961222422562
-107.00157671123544
-108.46011819978635
-107.90003538111642
-108.22313552924004
-107.61978990429098
-107.7790456905894
-108.92743868356706
-109.59417576675652
-109.48544000458692
-108.4254151674849
-108.19810972647716
-108.70905121078631
-108.25779330522448
-108.41963208452712
-108.81144227862285
-108.22698601096901
-107.02450075616511
-107.07800323710914
-105.00851811577266
-106.03987451317842
-105.87857883288136
-106.1500296107079
-105.99051955000131
-106.43336713436342
-105.57162233913003
-106.89464212255804
-105.58487361846568
-105.32761785284495
-104.93874117084437
-105.75913622543939
-106.17092976218147
-107.2156650192956
-107.52201455504007
-106.40862612958371
-107.2041885796435
-106.23744865570164
-106.29448717293619
-105.00474560903632
-106.28878239317602
-106.35535099998593
-105.01040440258603
-106.05126630824118
-105.89564941860391
-106.48666865312154
-105.35597123338269
-105.65872243533259
-106.24695364351392
-106.6085684984476
-107.0455174096068
-107.95383878541162
-106.9977563629639
-106.40672313626294
-106.67717868895235
-105.71744730960857
-105.65493448029738
-106.3477417367689
-106.68099124411061
-105.77619394274065
-106.97101653113954
-106.23744865570164
-106.65621128799643
-106.97865601779445
-107.2921961371032
-107.61211903436214
-109.88775866865541
-108.39650191104305
-108.43312628059122
-107.9634484949276
-108.02881027515625
-107.79056446825473
-108.10766546925092
-108.63181982497132
-108.687808733429
-107.80784423239824
-108.87522951420087
-108.00958336934907
-107.56035052686143
-106.6867102502159
-105.8141065566457
-105.78377573982542
-105.82169016826771
-105.52998265980565
-106.63715244026439
-105.69660696181178
-105.46376020548762
-105.26714752096517
-105.77808935800365
-106.46191927626727
-105.46754360226001
-106.27737345252356
-107.00539715260388
-106.48476471681157
-106.59904167197963
-106.28497932128064
-105.60380593665552
-107.10667279732482
-106.88891554043353
-106.62571824018474
-105.69850142570716
-105.66629861676893
-106.2450526001524
-105.982927845683
-106.72865598747714
-105.96015491858108
-104.86522549253728
-106.46001563912469
-107.29028240274621
-107.59869591972146
-107.69843808667582
-107.46069657675778
-109.18875000539813
-109.00094819869453
-108.13267669584044
-107.71378870126341
-107.86929893044241
-108.38879262042985
-107.54884874645481
-108.62795926806348
-106.71149501462838
-107.54693186547325
-107.09520434360442
-107.39557259426843
-107.74833311411075
-106.9882058995343
-107.78672478103846
-108.42348744917946
-108.6337501395627
-107.90195661088623
-108.13267669584044
-107.48177191563418
-107.10667279732482
-108.00381576131865
-106.7648908637402
-107.19080046359453
-107.88658743691163
-107.86929893044241
-107.45111781745726
-108.12498050479576
-107.95383878541162
-107.63513277616158
-108.12113255229272
-107.78864461281314
-108.76506810509915
-107.22714230065101
-107.85393298125867
-106.9003689136732
-107.02641124457644
-107.61595442216574
-107.02832175627431
-107.46452824499092
-106.70958835553246
-106.4181414409208
-108.14422169762014
-107.54693186547325
-107.16211549883589
-108.37337518965185
-106.86601130133045
-107.26923287018474
-107.49326875411978
-107.84240951478301
-107.7963241765905
-107.59294350989978
-107.38791273373891
-107.97113669011817
-107.01685903536644
-107.84433003328866
-107.47027592362842
-107.63896873001006
-107.15446706248488
-107.10284988612244
-107.41855442925048
-106.9251874241314
-106.92327816855088
-107.73681745882446
-106.51903909313233
-107.23670734489673
-107.43004661465382
-107.87121978076338
-108.10381794569817
-107.81552474312109
-109.00288313283222
-108.15384318818138
-108.77472824322065
-109.0628781391088
-109.29921469331335
-108.63181982497132
-107.77520628734123
-109.90722111771203
-109.57086876240162
-107.98843651926367
-106.16142935044408
-106.39340282640627
-106.10443887710392
-105.30682858458451
-106.90991403002475
-106.96337741662954
-104.81058190775323
-106.03797596047238
-107.0608040189008
-107.66965975867937
-107.03214284953354
-105.57540830607279
-105.99621356737961
-106.25265691101053
-107.51434849052586
-106.66574157817189
-106.70196195043464
-105.99051955000131
-106.23744865570164
-106.76679819400336
-107.47219186352149
-105.96964323980376
-106.66955385599054
-106.69624238943526
-108.27512509705745
-108.10189421966014
-108.69360184684562
-108.73995457234491
-110.51374341810336
-108.0749645562361
-108.60286799658797
-108.28860671860637
-108.52761858794015
-107.72338360330434
-107.504766439292
-106.04557030809856
-105.70039591223518
-106.88318916727404
-106.68480389173051
-107.08182554200953
-106.82784499492111
-107.28262769948675
-107.12005372136574
-106.76679819400336
-107.00348692028206
-107.504766439292
-106.32681815619826
-106.21844039721458
-107.48368799659286
-106.31160275025573
-107.1602033547195
-107.64855902750661
-107.32281907241511
-107.8136045799222
-108.47747263219246
-106.65239933365491
-107.03787466409524
-107.8136045799222
-107.6639047305805
-108.18078653424787
-107.10667279732482
-107.51626497135761
-108.07111784249471
-107.06271494991894
-107.51051559945022
-107.51434849052586
-108.41963208452712
-107.73873667559762
-107.88274538059764
-107.26540598677862
-107.59869591972146
-107.07800323710914
-107.39174261706688
-107.01494866337367
-106.96337741662954
-107.30942080027488
-106.42765732689946
-107.21949068621466
-108.17886185444429
-107.64472283772456
-107.66965975867937
-107.5507656509832
-106.62762388247235
-107.33430421959262
-106.32872018516434
-107.77712597713473
-106.95191944250368
-107.56993599155452
-107.40706308919084
-108.22313552924004
-107.6715781485923
-108.23276191271964
-108.42348744917946
-106.8049496636705
-108.41963208452712
-108.1480702223011
-108.21158465727066
-107.72338360330434
-107.87314065479264
-109.54368172908795
-108.22698601096901
-108.67815402679514
-109.08998031429232
-108.5681329531918
-108.77472824322065
-108.34447163985519
-109.43886251977823
-107.39365759393296
-106.24125058212982
-106.24315157969139
-106.25265691101053
-105.50159822769669
-107.49135255558006
-107.89619299274413
-108.44662165223284
-109.48349899408795
-109.02416901107541
-109.7593684901604
-108.97773088256122
-109.69715740329438
-109.81965956818945
-109.69132640777977
-108.43505411884381
-109.00288313283222
-109.52620689233679
-108.25394205888442
-108.40999409260897
-107.97113669011817
-109.78270415823255
-108.84043320977229
-109.37484152057341
-108.64726301635925
-109.13645227967446
-106.0987409603387
-107.15446706248488
-107.30367903507256
-108.52954760296491
-107.79056446825473
-106.2963888120379
-108.79405033192069
-107.928856319097
-107.69268199598984
-108.20965959552645
-110.0298914857996
-109.06674958662501
-110.53328579725478
-109.74186907029276
-109.70104485681411
-109.43886251977823
-108.92163679238794
-109.64274339735985
-110.03573538580407
-108.82110531759805
-109.88581255980179
-109.30115337827701
-110.18190552589324
-107.89042958808976
-108.34832513511748
-108.53726390347532
-108.46397457226084
-107.37450888123499
-106.7572617742473
-106.65430529927457
-106.34203503034477
-106.31921026973147
-105.68713498179194
-105.15571551771728
-105.03304158385383
-105.51295139187809
-106.92327816855088
-106.28117634106566
-107.37642364691995
-107.05316052785503
-105.81979423132525
-107.2386204239154
-108.88489654646766
-108.3078682111072
-108.03457881071071
-106.8526520385565
-107.48943638055849
-107.15637913654497
-108.38879262042985
-109.24687943122599
-107.85009173097849
-107.86161576622251
-108.36181312296522
-107.32856154053789
-109.48155800811496
-107.345790210601
-107.53926457699633
-108.42734290977783
-108.70132633579834
-108.15191884237214
-108.79211801428262
-108.50061490126286
-108.48518633757848
-108.82110531759805
-109.84494998559113
-108.45433382110988
-108.19810972647716
-107.17550116161586
-108.31557347804001
-107.15446706248488
-108.32327912788467
-108.97192709961706
-107.29028240274621
-107.03978531553238
-107.96921460568517
-108.18848549211208
-109.20424903949377
-108.64533253309678
-107.5967784262104
-106.69242946438528
-107.47027592362842
-108.19425996111971
-104.89538167782975
-105.7458703811038
-106.87746300305406
-106.34964401814435
-104.8331907804742
-105.90513387281142
-105.7458703811038
-104.89726662843192
-104.9670254454302
-105.30682858458451
-107.1449070424184
-105.08021269790031
-105.50727470836028
-107.11814209079682
-105.99431553880979
-106.52284781777607
-107.37642364691995
-105.888062264366
-107.14108319781657
-106.17853050311841
-109.89554335141717
-110.3984943519884
-110.18775524027672
-108.09997051744638
-106.12533299678412
-109.31084716960542
-108.41963208452712
-109.18681273583525
-108.91003366445952
-109.65828828662379
-109.0628781391088
-108.98353488391446
-108.42155975486052
-108.87329618039804
-109.26626078617046
-108.83270176258358
-109.10546941195435
-108.44662165223284
-108.79984742988432
-109.38453995816181
-106.81830486786905
-106.39911139277098
-106.26406406444242
-107.05316052785503
-105.78188025654507
-107.32664736106138
-105.58487361846568
-107.87121978076338
-106.5590352988942
-107.73105995034672
-106.89273323862996
-106.33823067413783
-106.25645920386106
-107.49135255558006
-107.37833843606566
-108.2597189642483
-107.40706308919084
-107.46836000724294
-107.08182554200953
-106.07974938817131
-107.46069657675778
-106.25075579894205
-106.80113409964717
-107.58527396009755
-106.78587277047227
-106.22794424030748
-107.22905526272362
-106.09684170040872
-106.83929391260055
-106.30970092772213
-106.24885470977681
-106.97101653113954
-106.94810030380185
-106.44098053289069
-106.32111220694041
-107.03978531553238
-105.1802616372502
-106.77633519270564
-107.23479428926913
-106.10633822835383
-105.5697293895152
-106.58761024167966
-106.20513597812818
-107.31707681519853
-106.87746300305406
-106.33062223707206
-105.30493878577558
-107.6044485416891
-107.86161576622251
-107.86353652171984
-108.13460080319865
-107.02832175627431
-108.42155975486052
-108.07304118746055
-108.3040157212133
-109.10159699156203
-108.55269765867357
-108.60286799658797
-107.97498093026061
-107.50093378347886
-106.94237177010437
-107.61595442216574
-109.1480724618575
-108.23468726108234
-108.97773088256122
-108.2481653686286
-107.72914082813146
-107.71762659118491
-107.90387786437982
-108.91390127682558
-109.1248329740398
-108.49868624672328
-108.40035670018294
-107.76944735991775
-107.70035683081326
-108.47940102251583
-107.56035052686143
-108.31172079671352
-107.45686500253586
-108.59514842409223
-107.69843808667582
-107.7963241765905
-108.77666034333443
-108.39842929362607
-108.44854965845236
-107.5641846420742
-108.31364712541125
-108.3020895121561
-109.41169883902484
-107.88274538059764
-109.06094245181777
-108.56427398522365
-108.7863212064044
-109.68743920060164
-108.68201583709549
-107.9634484949276
-108.94291146010173
-108.29053276020768
-108.93130673222856
-108.6607770740453
-107.61595442216574
-108.35025191867092
-107.87314065479264
-106.76107627268371
-106.53808363791792
-107.0474281542224
-107.23096824818354
-105.92789888196543
-105.97154097234036
-107.53543107401404
-106.77633519270564
-106.30779912812079
-106.99966652546306
-106.48857261245092
-106.98056594761293
-106.42004457214145
-106.89655102970731
-107.68308898387654
-109.25656980357456
-107.27880048834479
-108.12305651662679
-107.5737703423268
-107.34196145315984
-106.64668157539985
-108.59514842409223
-108.43505411884381
-106.9729263679123
-107.65623169023905
-107.928856319097
-108.52376063000716
-108.52376063000716
-107.15829123395618
-108.14037326832154
-107.14873098040201
-107.26540598677862
-107.52776435052344
-106.79159559513218
-106.09494246330637
-106.73246979150363
-106.89464212255804
-107.48177191563418
-107.2768869178924
-106.04557030809856
-105.76671720646615
-106.41433524743555
-106.33062223707206
-105.21425481653428
-106.58570508404425
-106.15952933667842
-105.37865757710915
-105.39189277221777
-105.43917032165874
-106.05696251363133
-105.32194778303864
-105.12928546272272
-106.0987409603387
-105.83306626650447
-106.00380590945113
-105.44484457256812
-106.15572937772144
-105.28415247977486
-105.10285978943182
-105.8842688236027
-105.80083610980304
-107.12961222422562
-106.50190097238006
-107.02832175627431
-107.21375222090752
-106.27737345252356
-107.24627297392051
-106.16902963410969
-105.99241753301736
-106.9977563629639
-107.27497337085119
-105.81031488697319
-106.4428839400125
-106.51523046063025
-107.12770047698177
-106.81639691201248
-107.0512497133456
-106.6028523333355
-106.33252431192231
-107.42046973477439
-106.89845996007872
-108.38301090414762
-106.42956057306252
-107.2328812570317
-105.91841306354232
-106.79350324969114
-107.57952204518236
-107.61020137582857
-107.3304757434513
-107.43387753101145
-107.24627297392051
-107.38982766366918
-106.35154632247169
-107.9826696956785
-107.15446706248488
-107.12961222422562
-106.97101653113954
-108.03265594173675
-107.39365759393296
-107.43387753101145
-107.4798558581888
-107.50285009962352
-106.60666308699852
-107.21375222090752
-106.97101653113954
-107.6428047782262
-107.5450150080376
-106.78778035552368
-106.43146384221684
-107.12387705250377
-105.81221071046534
-108.08073480543098
-108.50640100903867
-107.37450888123499
-107.58910868786471
-107.02067984919836
-106.67146002956402
-107.95191691476171
-107.60061343680428
-107.75984962067793
-107.7790456905894
-108.82497070249737
-107.43770854132673
-107.62746115153699
-107.71186979174723
-107.61978990429098
-107.39557259426843
-107.57952204518236
-108.15384318818138
-107.92501321885291
-108.64533253309678
-108.51025853436306
-109.1209600669132
-109.03965149586347
-107.97498093026061
-108.52183168709699
-108.9080998946268
-108.72836508757197
-108.62409880751564
-106.41052914588543
-105.58865990145665
-106.54951147088013
-106.13103187268274
-108.3040157212133
-108.40806656616827
-107.7272217295533
-107.28071408220924
-107.06271494991894
-106.93664344561054
-105.86909596941358
